# phase angle (deg) | RV shift (km/s)
1.785000000000000142e+01 -1.566000000000000369e+01
1.636250000000000071e+01 -1.421999999999999886e+01
1.487500000000000178e+01 -1.278000000000000114e+01
1.338750000000000107e+01 -1.098000000000000398e+01
1.190000000000000213e+01 -9.179999999999999716e+00
1.041250000000000142e+01 -8.820000000000000284e+00
8.925000000000000711e+00 -8.460000000000000853e+00
7.437500000000001776e+00 -7.740000000000001990e+00
5.950000000000001066e+00 -7.380000000000002558e+00
4.462500000000000355e+00 -7.020000000000003126e+00
2.975000000000001421e+00 -6.660000000000003695e+00
1.487500000000000711e+00 -5.940000000000008384e+00
0.000000000000000000e+00 -5.940000000000008384e+00
-1.487500000000000711e+00 -5.579999999999998295e+00
-2.974999999999997868e+00 -5.219999999999998863e+00
-4.462499999999998579e+00 -4.859999999999999432e+00
-5.949999999999999289e+00 -4.500000000000000000e+00
-7.437500000000000000e+00 -4.500000000000000000e+00
-8.925000000000000711e+00 -4.140000000000000568e+00
-1.041249999999999787e+01 -3.780000000000001137e+00
-1.189999999999999858e+01 -3.420000000000001705e+00
-1.338749999999999929e+01 -3.060000000000002274e+00
-1.487500000000000000e+01 -1.980000000000003979e+00
-1.636249999999999716e+01 -8.999999999999985789e-01
-1.785000000000000142e+01 -5.399999999999991473e-01
